===== NORM =====
1
3
4
5
6
7
9
10
13
14
15
16
19
21
24
25
29
31
33
35
36
38
42
43
44
46
47
51
53
55
56
57
58
59
61
62
66
67
69
70
71
72
73
74
75
79
80
81
82
83
84
85
86
88
89
90
91
92
93
94
95
98
99
101
104
105
109
110
111
113
114
115
117
120
121
123
124
125
126
129
136
145
147
150
151
156
158
165
174
178
179
183
185
193
194
196
197
198
200
201
202
203
204
205
206
208
212
213
214
215
216
221
224
225
227
229
230
231
232
233
235
237
239
241
243
244
245
246
247
248
249
250
252
253
254
262
264
265
268
272
275
277
278
280
283
288
292
293
301
302
303
304
309
312
314
315
317
322
327
332
334
335
339
340
342
343
345
352
353
354
355
356
358
359
361
362
364
365
366
368
370
371
372
373
374
375
376
379
387
389
391
392
393
395
397
398
399
401
403
404
405
406
410
411
417
419
420
426
431
432
433
434
435
437
438
439
440
441
443
444
445
446
451
454
456
457
459
460
462
463
466
467
470
471
472
473
474
475
480
487
488
490
491
493
494
504
505
506
509
523
531
533
538
539
549
552
553
559
560
561
565
566
570
572
578
580
582
583
587
589
590
591
595
596
597
603
605
611
615
619
620
624
625
629
638
639
641
642
643
644
645
649
653
654
655
657
660
662
663
664
666
668
669
670
671
673
675
677
679
683
684
687
694
695
698
710
719
721
725
726
729
732
735
736
737
740
748
751
753
754
758
762
764
769
771
772
773
774
775
776
777
778
779
781
783
784
787
790
791
792
793
795
797
802
803
808
809
812
813
815
817
819
824
830
832
834
835
837
838
839
843
845
848
850
851
860
862
863
865
866
867
868
870
876
878
879
881
882
884
886
888
889
891
895
897
899
900
901
902
904
905
906
911
913
916
917
918
921
922
925
926
927
928
929
933
935
936
945
949
951
952
954
958
960
961
966
967
971
972
979
981
983
988
989
992
995
999
1000
1001
1002
1008
1016
1018
1019
1021
1022
1023
1027
1028
1029
1031
1034
1037
1041
1045
1051
1054
1058
1062
1067
1069
1071
1076
1078
1083
1086
1089
1090
1092
1094
1095
1096
1097
1098
1099
1100
1101
1104
1106
1113
1116
1117
1118
1121
1122
1124
1125
1127
1129
1130
1131
1133
1137
1139
1140
1141
1142
1143
1145
1147
1149
1158
1161
1163
1169
1170
1172
1174
1176
1181
1182
1186
1188
1190
1191
1192
1195
1196
1197
1201
1206
1208
1209
1212
1217
1221
1226
1230
1241
1243
1246
1247
1249
1251
1252
1253
1254
1257
1259
1262
1263
1264
1266
1267
1269
1270
1271
1274
1276
1280
1281
1283
1285
1286
1287
1290
1291
1292
1294
1296
1297
1300
1301
1302
1303
1306
1308
1311
1312
1313
1314
1315
1323
1326
1330
1331
1335
1336
1340
1341
1344
1345
1346
1348
1349
1351
1352
1353
1355
1357
1359
1360
1361
1363
1364
1368
1369
1372
1374
1375
1379
1382
1383
1388
1389
1396
1397
1400
1406
1407
1408
1409
1410
1412
1414
1418
1420
1421
1428
1431
1438
1442
1446
1454
1458
1459
1460
1462
1468
1472
1475
1476
1477
1479
1481
1485
1487
1488
1491
1493
1494
1495
1497
1498
1499
1504
1506
1509
1516
1517
1518
1519
1526
1527
1530
1531
1532
1533
1539
1545
1553
1555
1559
1560
1561
1565
1566
1568
1573
1574
1580
1581
1582
1584
1585
1589
1593
1595
1597
1598
1600
1604
1607
1610
1613
1614
1615
1618
1619
1620
1622
1623
1626
1631
1632
1634
1636
1637
1639
1648
1651
1653
1655
1656
1657
1658
1660
1662
1664
1666
1672
1673
1677
1678
1681
1685
1690
1691
1692
1693
1695
1697
1698
1700
1701
1702
1705
1706
1707
1708
1714
1715
1718
1720
1724
1726
1727
1728
1730
1732
1734
1740
1741
1743
1749
1752
1757
1759
1760
1762
1767
1771
1772
1775
1776
1778
1779
1780
1782
1783
1788
1790
1791
1793
1795
1796
1804
1808
1818
1821
1824
1825
1826
1827
1830
1831
1833
1834
1835
1836
1840
1841
1845
1850
1852
1854
1856
1857
1859
1860
1865
1867
1869
1870
1871
1873
1875
1878
1880
1882
1883
1885
1891
1893
1896
1899
1900
1904
1905
1909
1912
1913
1915
1916
1917
1921
1922
1923
1928
1931
1933
1934
1938
1943
1945
1946
1952
1953
1956
1957
1958
1960
1974
1976
1978
1979
1987
1988
1989
1997
2003
2005
2006
2007
2010
2013
2018
2024
2025
2026
2027
2036
2038
2040
2041
2043
2044
2045
2052
2053
2056
2057
2058
2061
2063
2065
2068
2069
2071
2077
2078
2079
2081
2083
2084
2086
2087
2089
2091
2095
2097
2098
2100
2102
2105
2107
2115
2122
2127
2128
2129
2130
2132
2133
2137
2138
2139
2140
2141
2143
2144
2152
2158
2159
2161
2162
2163
2166
2167
2168
2172
2173
2178
2181
2182
2183
2186
2187
2190
2191
2193
2194
2198
2199
2203
2209
2211
2212
2214
2215
2217
2224
2226
2230
2232
2237
2238
2242
2249
2250
2251
2254
2255
2259
2261
2263
2264
2265
2266
2267
2270
2272
2274
2278
2280
2282
2284
2286
2287
2292
2294
2295
2296
2298
2299
2301
2302
2303
2305
2306
2307
2308
2309
2310
2312
2313
2314
2315
2316
2318
2319
2320
2321
2326
2327
2338
2339
2341
2342
2344
2346
2347
2348
2351
2354
2355
2358
2360
2361
2364
2367
2369
2373
2374
2376
2379
2382
2383
2384
2386
2388
2389
2391
2393
2394
2395
2396
2398
2399
2404
2405
2407
2408
2413
2414
2416
2418
2420
2421
2423
2424
2427
2429
2431
2432
2435
2436
2437
2438
2439
2441
2444
2445
2447
2455
2456
2460
2461
2462
2463
2464
2465
2467
2472
2474
2476
2477
2478
2479
2480
2481
2483
2488
2489
2496
2498
2500
2502
2506
2507
2508
2511
2514
2518
2522
2524
2528
2529
2533
2537
2540
2542
2545
2546
2547
2551
2553
2557
2558
2559
2560
2566
2570
2574
2575
2578
2579
2580
2584
2589
2593
2594
2595
2596
2601
2603
2604
2607
2608
2609
2611
2613
2616
2618
2619
2625
2628
2631
2632
2636
2638
2639
2641
2643
2644
2645
2646
2649
2651
2652
2659
2660
2661
2662
2663
2665
2670
2674
2678
2679
2680
2682
2685
2686
2687
2688
2689
2695
2697
2698
2699
2700
2701
2703
2708
2711
2713
2715
2721
2723
2726
2728
2729
2732
2733
2738
2752
2756
2757
2764
2765
2766
2767
2770
2771
2773
2774
2775
2777
2779
2780
2783
2785
2786
2790
2791
2794
2796
2799
2801
2806
2811
2812
2819
2820
2821
2822
2827
2830
2831
2832
2834
2837
2838
2839
2841
2842
2845
2847
2848
2849
2851
2854
2855
2857
2860
2864
2866
2870
2871
2873
2875
2877
2881
2884
2888
2892
2897
2898
2903
2904
2909
2912
2913
2914
2915
2916
2920
2921
2923
2926
2928
2929
2930
2931
2932
2933
2934
2935
2936
2939
2941
2942
2943
2944
2945
2950
2951
2953
2954
2958
2963
2966
2968
2972
2973
2975
2976
2978
2979
2980
2982
2984
2986
2987
2991
2995
2996
2998
3002
3003
3004
3007
3008
3012
3017
3020
3022
3023
3024
3026
3030
3032
3034
3036
3042
3043
3046
3048
3053
3054
3056
3060
3062
3067
3068
3072
3073
3079
3080
3081
3082
3083
3086
3089
3093
3094
3095
3098
3102
3103
3105
3110
3111
3112
3114
3115
3118
3119
3121
3130
3138
3141
3143
3146
3148
3149
3152
3153
3158
3159
3162
3163
3164
3165
3167
3168
3169
3174
3179
3182
3183
3184
3186
3187
3189
3190
3192
3194
3197
3198
3200
3203
3212
3214
3221
3227
3228
3229
3232
3235
3236
3237
3239
3245
3253
3254
3255
3256
3257
3261
3263
3264
3271
3273
3274
3277
3279
3280
3283
3287
3288
3292
3296
3297
3298
3300
3303
3308
3312
3313
3328
3330
3331
3332
3333
3335
3343
3345
3347
3348
3351
3352
3355
3358
3364
3365
3367
3369
3372
3373
3374
3377
3379
3384
3390
3395
3397
3402
3403
3404
3406
3408
3410
3415
3418
3420
3430
3441
3444
3447
3448
3450
3451
3458
3460
3462
3467
3469
3470
3471
3472
3474
3475
3478
3485
3490
3491
3492
3494
3497
3498
3501
3510
3513
3520
3521
3522
3523
3524
3526
3533
3536
3537
3540
3542
3543
3545
3549
3552
3554
3556
3558
3561
3562
3566
3569
3570
3571
3572
3574
3577
3580
3583
3585
3587
3588
3591
3592
3595
3596
3598
3601
3607
3614
3615
3618
3619
3622
3623
3624
3625
3627
3630
3634
3639
3640
3645
3646
3647
3648
3649
3650
3652
3661
3662
3666
3667
3669
3675
3679
3683
3686
3691
3694
3697
3698
3702
3705
3709
3710
3711
3712
3713
3714
3716
3717
3718
3719
3720
3721
3722
3724
3726
3727
3728
3730
3732
3734
3735
3736
3738
3742
3743
3744
3746
3748
3749
3752
3753
3754
3756
3758
3760
3761
3762
3765
3766
3767
3768
3771
3775
3778
3779
3780
3782
3787
3794
3806
3810
3811
3812
3813
3817
3822
3829
3830
3831
3833
3839
3841
3843
3845
3846
3847
3848
3849
3851
3854
3858
3863
3865
3871
3874
3876
3880
3881
3887
3892
3896
3898
3901
3903
3907
3909
3912
3916
3918
3920
3923
3926
3927
3928
3929
3931
3933
3935
3936
3937
3938
3942
3943
3950
3951
3952
3954
3955
3958
3959
3961
3964
3965
3969
3970
3974
3977
3981
3984
3985
3986
3988
3989
3993
3997
4000
4003
4005
4006
4008
4011
4012
4014
4017
4020
4021
4030
4034
4035
4036
4037
4040
4041
4042
4043
4055
4057
4060
4061
4062
4064
4065
4067
4069
4071
4073
4074
4075
4076
4077
4078
4082
4083
4088
4089
4090
4093
4094
4101
4103
4104
4113
4120
4122
4125
4134
4138
4139
4142
4144
4151
4152
4155
4156
4157
4159
4162
4164
4165
4169
4171
4172
4178
4179
4180
4183
4185
4187
4192
4193
4197
4198
4201
4204
4205
4207
4208
4210
4213
4215
4217
4229
4235
4241
4242
4243
4247
4249
4250
4252
4261
4262
4263
4268
4272
4273
4283
4285
4286
4287
4288
4289
4290
4291
4293
4295
4296
4299
4300
4301
4302
4304
4314
4317
4319
4321
4325
4328
4337
4341
4342
4343
4344
4345
4346
4347
4348
4354
4355
4356
4364
4365
4370
4381
4383
4389
4390
4394
4404
4407
4411
4413
4414
4416
4420
4422
4428
4429
4431
4435
4437
4439
4441
4447
4454
4461
4462
4469
4471
4472
4473
4478
4479
4480
4482
4483
4484
4485
4487
4488
4490
4491
4498
4500
4504
4507
4510
4512
4514
4517
4520
4524
4530
4542
4543
4544
4553
4555
4556
4557
4558
4569
4573
4577
4579
4584
4587
4596
4597
4598
4609
4613
4616
4620
4622
4628
4631
4635
4639
4642
4643
4648
4650
4662
4664
4668
4669
4671
4678
4679
4680
4682
4685
4689
4691
4699
4705
4709
4710
4715
4718
4721
4724
4726
4727
4736
4739
4747
4754
4759
4760
4764
4766
4770
4773
4774
4778
4782
4783
4784
4789
4799
4802
4805
4808
4810
4811
4814
4817
4821
4822
4831
4834
4835
4836
4843
4844
4851
4858
4860
4862
4864
4865
4867
4873
4875
4876
4877
4879
4884
4888
4890
4892
4898
4900
4902
4913
4914
4928
4933
4939
4941
4944
4947
4950
4951
4954
4955
4958
4959
4961
4967
4969
4971
4976
4982
4987
5000
5001
5002
5004
5007
5008
5013
5014
5015
5026
5030
5032
5037
5038
5044
5055
5057
5060
5063
5066
5067
5081
5082
5085
5086
5090
5091
5097
5098
5099
5102
5104
5106
5115
5128
5140
5141
5142
5146
5151
5152
5161
5165
5171
5174
5177
5178
5182
5183
5184
5190
5192
5195
5197
5199
5207
5214
5215
5220
5222
5223
5225
5227
5230
5232
5236
5242
5243
5245
5253
5256
5261
5262
5263
5267
5269
5273
5275
5281
5285
5288
5290
5291
5298
5304
5305
5307
5308
5309
5318
5321
5324
5326
5344
5345
5346
5350
5355
5363
5369
5370
5373
5375
5378
5380
5381
5382
5383
5391
5393
5399
5401
5403
5405
5406
5410
5412
5414
5415
5416
5418
5420
5421
5427
5428
5431
5434
5435
5436
5438
5440
5443
5446
5447
5448
5452
5457
5459
5460
5462
5463
5466
5467
5468
5469
5475
5481
5483
5484
5486
5487
5490
5491
5499
5500
5503
5505
5506
5507
5508
5514
5516
5519
5524
5525
5529
5530
5531
5534
5536
5542
5548
5549
5550
5551
5552
5555
5556
5558
5559
5563
5564
5565
5566
5568
5576
5577
5578
5579
5580
5581
5584
5592
5600
5604
5607
5608
5609
5610
5611
5612
5617
5618
5621
5622
5626
5627
5630
5638
5641
5642
5651
5652
5653
5654
5655
5662
5666
5668
5671
5672
5675
5689
5692
5693
5695
5697
5699
5701
5702
5704
5707
5710
5721
5723
5724
5725
5726
5727
5731
5733
5735
5737
5738
5741
5743
5744
5746
5747
5751
5753
5758
5767
5770
5779
5781
5782
5783
5784
5791
5792
5796
5798
5799
5802
5803
5808
5809
5812
5814
5815
5816
5819
5820
5824
5825
5828
5829
5831
5834
5835
5836
5843
5845
5849
5850
5852
5853
5855
5864
5869
5870
5875
5887
5890
5893
5896
5897
5898
5901
5904
5907
5910
5914
5915
5916
5917
5918
5919
5921
5922
5924
5928
5929
5931
5935
5938
5944
5945
5946
5947
5954
5959
5960
5962
5964
5968
5969
5970
5972
5973
5974
5975
5977
5978
5980
5981
5984
5986
5987
5989
5992
5999
6000
6002
6004
6006
6007
6008
6009
6012
6013
6016
6024
6026
6028
6031
6035
6037
6039
6043
6046
6047
6050
6053
6054
6055
6059
6063
6066
6069
6071
6072
6074
6076
6077
6079
6089
6093
6094
6097
6099
6100
6101
6103
6107
6110
6114
6118
6119
6121
6128
6131
6133
6139
6143
6145
6148
6151
6156
6159
6160
6166
6168
6176
6181
6183
6184
6188
6191
6193
6196
6200
6207
6208
6213
6215
6216
6219
6220
6222
6227
6232
6234
6235
6239
6243
6248
6260
6261
6262
6263
6265
6266
6268
6271
6274
6277
6278
6279
6281
6293
6294
6295
6296
6298
6299
6301
6307
6308
6311
6316
6321
6324
6326
6328
6329
6330
6333
6336
6340
6341
6344
6346
6348
6354
6357
6358
6360
6363
6364
6365
6367
6368
6370
6372
6374
6378
6381
6383
6385
6391
6393
6399
6402
6406
6413
6415
6418
6419
6421
6425
6429
6430
6434
6436
6437
6438
6440
6441
6448
6455
6457
6458
6461
6462
6470
6474
6477
6481
6482
6485
6488
6489
6493
6496
6499
6501
6502
6503
6513
6514
6516
6518
6524
6535
6539
6550
6553
6555
6564
6565
6566
6567
6568
6570
6571
6573
6574
6583
6584
6587
6593
6597
6598
6601
6603
6604
6610
6611
6612
6613
6617
6619
6620
6622
6623
6636
6637
6640
6645
6650
6653
6655
6656
6658
6659
6660
6667
6668
6670
6672
6674
6679
6687
6688
6696
6700
6707
6713
6720
6723
6724
6725
6728
6729
6730
6733
6734
6737
6739
6741
6743
6744
6745
6748
6749
6753
6757
6758
6763
6765
6768
6772
6774
6775
6776
6779
6780
6782
6787
6791
6798
6799
6802
6811
6813
6814
6815
6820
6823
6830
6836
6845
6848
6853
6854
6855
6860
6862
6865
6867
6871
6874
6879
6882
6883
6888
6890
6896
6897
6899
6900
6909
6914
6921
6923
6928
6930
6931
6934
6939
6942
6943
6946
6948
6949
6951
6952
6954
6959
6960
6964
6966
6968
6971
6973
6978
6979
6980
6981
6982
6985
6986
6996
6999
7004
7007
7008
7018
7026
7031
7034
7042
7047
7051
7056
7058
7060
7068
7069
7074
7077
7080
7082
7084
7087
7089
7091
7092
7101
7106
7108
7109
7113
7115
7124
7125
7126
7129
7131
7133
7144
7147
7150
7151
7154
7156
7161
7164
7170
7171
7173
7180
7182
7184
7185
7190
7201
7202
7205
7207
7213
7217
7219
7220
7231
7247
7256
7257
7258
7263
7268
7272
7273
7279
7288
7290
7309
7320
7322
7323
7329
7332
7337
7343
7344
7346
7347
7348
7351
7353
7362
7364
7368
7369
7371
7372
7375
7376
7377
7380
7381
7382
7383
7384
7385
7392
7394
7395
7396
7397
7398
7401
7406
7413
7415
7416
7420
7421
7422
7425
7427
7430
7435
7443
7447
7449
7453
7454
7455
7459
7461
7464
7469
7470
7477
7478
7491
7494
7499
7507
7513
7520
7530
7532
7535
7540
7543
7544
7545
7551
7553
7555
7556
7559
7560
7562
7564
7566
7568
7570
7574
7578
7580
7581
7583
7585
7586
7589
7590
7596
7597
7599
7602
7606
7608
7609
7620
7621
7623
7626
7627
7628
7633
7634
7635
7640
7641
7642
7644
7647
7648
7649
7650
7651
7656
7659
7662
7669
7672
7675
7679
7681
7689
7691
7694
7696
7701
7709
7710
7711
7712
7714
7715
7718
7719
7722
7724
7733
7735
7739
7740
7750
7752
7754
7757
7758
7761
7764
7765
7766
7768
7770
7771
7772
7773
7778
7784
7787
7789
7793
7795
7797
7800
7803
7805
7808
7818
7819
7830
7832
7833
7834
7836
7842
7845
7848
7850
7854
7855
7863
7869
7871
7874
7875
7879
7883
7886
7891
7892
7894
7898
7899
7903
7905
7908
7910
7911
7913
7914
7917
7918
7920
7921
7922
7923
7924
7928
7929
7931
7932
7935
7938
7941
7942
7944
7948
7949
7950
7955
7956
7965
7968
7969
7972
7974
7975
7978
7979
7982
7983
7984
7985
7989
7993
7995
7996
8006
8008
8010
8012
8014
8028
8033
8034
8035
8040
8042
8046
8047
8050
8051
8052
8053
8056
8057
8058
8061
8064
8067
8068
8069
8070
8071
8074
8076
8077
8078
8080
8084
8085
8086
8087
8088
8089
8090
8091
8093
8094
8096
8097
8098
8099
8100
8101
8102
8104
8107
8109
8113
8115
8116
8120
8122
8124
8127
8128
8132
8137
8138
8140
8142
8144
8145
8146
8148
8150
8151
8155
8158
8160
8164
8165
8167
8168
8170
8176
8179
8181
8183
8184
8188
8192
8193
8198
8199
8200
8202
8205
8206
8211
8213
8214
8216
8217
8221
8222
8228
8230
8234
8235
8239
8240
8243
8245
8246
8248
8249
8250
8254
8258
8262
8264
8269
8270
8277
8280
8287
8288
8293
8295
8299
8305
8306
8311
8313
8314
8322
8325
8326
8330
8333
8338
8341
8353
8358
8363
8376
8384
8387
8388
8389
8396
8397
8400
8402
8407
8409
8410
8412
8422
8426
8427
8430
8433
8438
8440
8441
8443
8447
8453
8454
8458
8464
8466
8467
8470
8471
8474
8480
8481
8484
8486
8494
8496
8500
8510
8511
8514
8521
8526
8527
8531
8538
8545
8548
8552
8553
8556
8560
8561
8564
8565
8573
8577
8580
8582
8583
8590
8592
8596
8598
8603
8607
8617
8619
8623
8627
8639
8642
8644
8645
8649
8653
8654
8659
8663
8664
8673
8679
8685
8688
8689
8691
8697
8701
8702
8705
8707
8709
8713
8715
8717
8727
8739
8740
8743
8751
8754
8756
8757
8760
8762
8765
8767
8771
8774
8778
8780
8781
8783
8784
8788
8790
8791
8807
8809
8815
8816
8826
8827
8829
8830
8833
8835
8839
8840
8844
8846
8852
8853
8856
8857
8861
8867
8870
8874
8876
8899
8900
8902
8903
8906
8910
8914
8916
8917
8919
8920
8921
8923
8925
8926
8929
8931
8933
8934
8938
8941
8942
8948
8951
8955
8963
8976
8978
8979
8984
8992
8993
8995
8997
9000
9001
9002
9006
9010
9011
9013
9014
9019
9028
9029
9036
9037
9038
9043
9044
9048
9049
9052
9056
9057
9058
9065
9069
9071
9072
9073
9077
9078
9079
9080
9090
9092
9097
9099
9103
9106
9109
9117
9118
9121
9123
9127
9133
9135
9137
9139
9140
9142
9147
9150
9162
9164
9169
9174
9175
9178
9184
9187
9190
9191
9196
9197
9201
9208
9213
9215
9219
9224
9225
9229
9234
9238
9240
9249
9254
9257
9258
9261
9273
9277
9279
9282
9285
9288
9291
9292
9300
9303
9309
9310
9311
9314
9323
9325
9330
9333
9338
9339
9341
9344
9355
9358
9362
9367
9374
9376
9381
9386
9389
9392
9393
9396
9397
9407
9410
9413
9419
9421
9423
9427
9429
9430
9432
9434
9436
9437
9438
9440
9447
9449
9455
9456
9459
9461
9464
9465
9468
9469
9470
9473
9475
9476
9479
9481
9483
9487
9491
9492
9495
9497
9499
9501
9504
9513
9517
9521
9524
9526
9529
9531
9532
9538
9539
9541
9547
9555
9558
9560
9566
9574
9579
9582
9584
9589
9593
9594
9601
9603
9605
9622
9624
9627
9632
9635
9636
9637
9644
9646
9652
9661
9664
9667
9669
9670
9671
9672
9674
9678
9680
9688
9689
9691
9700
9702
9704
9710
9720
9725
9731
9733
9734
9736
9740
9744
9748
9750
9752
9753
9760
9762
9764
9772
9773
9776
9777
9778
9779
9783
9790
9793
9796
9797
9798
9800
9802
9803
9804
9808
9809
9814
9815
9817
9818
9820
9825
9826
9829
9830
9836
9838
9840
9841
9843
9846
9848
9852
9853
9855
9856
9857
9859
9864
9865
9868
9874
9877
9878
9881
9882
9884
9893
9896
9898
9900
9901
9903
9904
9907
9911
9916
9918
9924
9928
9937
9938
9939
9942
9948
9952
9954
9955
9956
9958
9959
9960
9961
9963
9964
9966
9968
9969
9970
9971
9972
9973
9974
9976
9979
9980
9981
9982
9983
9984
9992
9994
9995
9997
10000
10005
10007
10008
10011
10013
10014
10018
10019
10023
10026
10028
10029
10031
10033
10035
10038
10040
10042
10043
10056
10058
10059
10064
10068
10069
10072
10077
10078
10079
10085
10087
10090
10091
10098
10099
10100
10103
10104
10106
10110
10113
10114
10116
10118
10121
10122
10124
10125
10128
10141
10142
10143
10145
10146
10149
10151
10152
10153
10155
10156
10158
10162
10163
10164
10166
10167
10172
10174
10175
10176
10178
10181
10182
10183
10184
10186
10187
10188
10189
10191
10192
10195
10197
10206
10208
10215
10220
10227
10229
10230
10231
10232
10235
10238
10239
10241
10250
10251
10255
10256
10257
10259
10261
10264
10265
10267
10268
10270
10272
10275
10276
10277
10280
10285
10289
10290
10292
10294
10297
10299
10303
10307
10312
10316
10317
10319
10325
10326
10327
10329
10330
10332
10338
10341
10350
10351
10352
10357
10358
10363
10364
10366
10368
10369
10372
10373
10374
10378
10382
10384
10385
10386
10391
10393
10394
10396
10397
10398
10405
10408
10409
10412
10413
10418
10421
10422
10423
10424
10427
10428
10431
10432
10433
10435
10436
10440
10441
10443
10451
10454
10457
10460
10461
10462
10465
10468
10471
10472
10483
10484
10491
10492
10495
10497
10503
10504
10508
10509
10511
10519
10523
10524
10527
10530
10531
10533
10535
10536
10541
10545
10546
10547
10549
10559
10560
10570
10572
10578
10582
10584
10585
10589
10592
10593
10595
10596
10597
10600
10603
10606
10607
10610
10617
10621
10622
10627
10629
10630
10631
10641
10644
10648
10650
10653
10655
10658
10664
10669
10670
10674
10679
10680
10681
10682
10684
10685
10686
10687
10688
10690
10691
10693
10694
10696
10705
10710
10712
10713
10716
10717
10718
10731
10735
10740
10747
10748
10749
10750
10756
10758
10759
10767
10770
10774
10776
10781
10787
10788
10795
10799
10804
10806
10810
10812
10820
10821
10823
10824
10827
10829
10830
10831
10833
10836
10840
10841
10842
10847
10850
10854
10855
10856
10857
10858
10871
10883
10884
10885
10887
10891
10903
10904
10905
10906
10911
10915
10917
10920
10926
10928
10947
10957
10958
10960
10962
10968
10970
10973
10975
10979
10981
10983
10985
10989
10990
10992
10993
10997
11008
11011
11012
11014
11022
11027
11041
11049
11055
11056
11057
11058
11065
11069
11072
11074
11076
11077
11079
11082
11084
11086
11087
11088
11092
11098
11112
11114
11116
11120
11122
11124
11126
11128
11129
11131
11136
11137
11138
11142
11143
11144
11145
11147
11149
11172
11181
11182
11184
11188
11195
11196
11198
11202
11204
11222
11225
11230
11234
11240
11242
11245
11248
11253
11256
11257
11265
11267
11271
11276
11279
11281
11292
11299
11304
11307
11314
11316
11318
11321
11324
11325
11333
11340
11341
11345
11347
11354
11355
11357
11358
11364
11366
11367
11368
11369
11372
11373
11375
11379
11385
11388
11399
11402
11403
11404
11407
11414
11419
11421
11423
11425
11428
11429
11432
11433
11435
11438
11439
11440
11446
11448
11451
11455
11456
11459
11461
11462
11465
11467
11470
11471
11478
11484
11486
11489
11490
11492
11493
11497
11499
11501
11502
11503
11507
11515
11519
11523
11531
11532
11533
11534
11538
11543
11548
11549
11553
11559
11561
11563
11564
11570
11574
11576
11596
11598
11600
11601
11603
11604
11606
11609
11610
11613
11615
11617
11622
11623
11625
11627
11634
11647
11653
11660
11667
11669
11670
11673
11679
11683
11688
11692
11693
11694
11695
11696
11698
11702
11704
11705
11706
11708
11710
11713
11718
11720
11721
11722
11723
11732
11734
11736
11739
11742
11749
11753
11762
11764
11765
11771
11780
11781
11782
11783
11790
11791
11792
11794
11795
11797
11798
11800
11801
11803
11805
11807
11808
11809
11813
11814
11815
11819
11824
11825
11831
11835
11842
11843
11850
11853
11857
11858
11864
11874
11876
11878
11884
11885
11887
11888
11891
11898
11900
11905
11907
11908
11918
11921
11924
11925
11928
11931
11932
11933
11934
11936
11939
11941
11942
11943
11946
11950
11951
11956
11957
11959
11961
11962
11965
11966
11968
11973
11974
11975
11984
11987
11988
11989
11990
11991
11992
11995
12001
12004
12006
12007
12010
12014
12029
12030
12034
12038
12040
12043
12046
12050
12051
12055
12056
12059
12064
12065
12067
12071
12074
12075
12079
12080
12086
12088
12089
12097
12099
12101
12104
12105
12109
12110
12111
12114
12115
12116
12117
12118
12119
12120
12123
12127
12129
12132
12133
12135
12142
12144
12146
12152
12154
12160
12164
12166
12170
12171
12174
12180
12184
12187
12188
12193
12194
12199
12200
12202
12210
12216
12218
12219
12222
12226
12229
12230
12232
12246
12250
12251
12253
12256
12257
12261
12263
12266
12267
12268
12270
12271
12272
12274
12275
12277
12278
12280
12282
12284
12289
12291
12294
12295
12296
12298
12306
12310
12312
12313
12315
12319
12320
12321
12326
12327
12330
12332
12336
12337
12344
12345
12347
12348
12351
12355
12357
12361
12362
12365
12370
12376
12380
12382
12389
12390
12395
12397
12401
12407
12408
12413
12414
12420
12423
12427
12436
12438
12439
12446
12448
12451
12452
12453
12455
12457
12458
12465
12466
12467
12468
12469
12470
12471
12474
12475
12477
12478
12479
12480
12485
12486
12491
12496
12499
12505
12512
12513
12522
12526
12528
12529
12531
12534
12543
12546
12549
12553
12554
12556
12563
12564
12574
12575
12578
12579
12592
12594
12598
12604
12606
12607
12608
12609
12617
12619
12620
12621
12622
12625
12626
12637
12638
12645
12651
12652
12653
12657
12659
12660
12661
12666
12672
12677
12683
12686
12689
12691
12694
12695
12696
12697
12698
12699
12700
12702
12704
12705
12706
12709
12711
12713
12715
12725
12727
12728
12729
12730
12732
12733
12734
12739
12743
12744
12745
12751
12752
12757
12760
12763
12764
12766
12768
12771
12773
12778
12782
12783
12784
12789
12791
12794
12805
12812
12815
12817
12819
12820
12824
12829
12832
12833
12836
12837
12839
12846
12853
12859
12860
12861
12862
12864
12875
12877
12878
12880
12883
12884
12885
12886
12890
12892
12901
12905
12911
12913
12916
12918
12925
12929
12944
12946
12947
12949
12951
12954
12956
12957
12965
12966
12969
12981
12982
12985
12995
12996
12999
13000
13003
13005
13008
13009
13010
13014
13017
13018
13025
13028
13029
13034
13035
13036
13042
13045
13049
13051
13052
13056
13059
13062
13063
13066
13070
13071
13073
13074
13075
13076
13080
13081
13088
13089
13091
13092
13093
13095
13103
13105
13113
13114
13117
13119
13123
13125
13126
13128
13129
13140
13141
13145
13149
13161
13162
13169
13172
13180
13181
13185
13191
13194
13195
13202
13203
13206
13207
13210
13211
13212
13220
13231
13232
13234
13236
13240
13250
13252
13256
13260
13265
13268
13270
13273
13274
13279
13282
13283
13285
13288
13304
13310
13311
13312
13314
13315
13316
13317
13320
13323
13324
13332
13341
13344
13346
13349
13353
13355
13356
13359
13360
13363
13364
13368
13370
13372
13373
13377
13379
13380
13382
13383
13384
13391
13394
13395
13396
13398
13400
13404
13407
13409
13413
13414
13418
13427
13428
13430
13438
13448
13451
13452
13463
13472
13478
13480
13490
13491
13492
13493
13498
13505
13506
13508
13509
13511
13512
13513
13519
13521
13522
13525
13526
13527
13531
13536
13537
13540
13541
13543
13544
13546
13550
13551
13555
13567
13568
13571
13572
13575
13576
13578
13579
13587
13591
13593
13594
13595
13596
13597
13599
13600
13602
13605
13608
13609
13611
13613
13621
13622
13625
13630
13631
13636
13637
13642
13643
13644
13645
13646
13656
13659
13663
13667
13668
13669
13673
13677
13680
13683
13685
13688
13690
13691
13699
13701
13705
13706
13707
13708
13712
13713
13714
13716
13717
13727
13733
13735
13736
13737
13738
13740
13743
13747
13750
13753
13754
13755
13756
13758
13759
13761
13762
13765
13767
13770
13773
13776
13780
13783
13786
13791
13792
13795
13802
13805
13806
13808
13809
13811
13812
13816
13817
13818
13821
13822
13824
13834
13836
13846
13850
13857
13860
13862
13865
13866
13870
13871
13876
13879
13887
13889
13892
13894
13895
13898
13900
13901
13902
13903
13905
13909
13916
13917
13918
13920
13922
13923
13925
13928
13929
13930
13932
13933
13934
13937
13939
13940
13942
13944
13945
13947
13952
13959
13960
13961
13968
13969
13970
13971
13972
13973
13977
13981
13982
13985
13993
13995
13999
14001
14002
14006
14012
14013
14015
14022
14023
14025
14027
14028
14030
14032
14036
14038
14039
14040
14043
14044
14049
14050
14051
14052
14055
14056
14057
14061
14062
14063
14064
14066
14067
14068
14071
14075
14077
14078
14080
14082
14084
14092
14095
14103
14104
14106
14108
14112
14113
14114
14115
14117
14118
14120
14121
14124
14132
14133
14134
14135
14136
14138
14141
14143
14145
14149
14150
14151
14154
14156
14159
14164
14165
14168
14169
14170
14177
14179
14182
14184
14185
14187
14188
14189
14191
14197
14200
14204
14206
14208
14210
14213
14220
14222
14227
14231
14232
14234
14235
14236
14241
14249
14251
14255
14256
14259
14261
14262
14263
14270
14272
14273
14274
14276
14277
14278
14282
14287
14289
14293
14294
14299
14301
14302
14306
14307
14310
14321
14322
14324
14329
14338
14339
14342
14346
14348
14352
14353
14356
14362
14363
14365
14366
14367
14368
14372
14376
14380
14381
14396
14403
14404
14407
14408
14409
14410
14412
14418
14425
14435
14437
14438
14443
14444
14447
14452
14457
14459
14460
14461
14462
14463
14464
14466
14469
14482
14483
14484
14486
14488
14502
14503
14506
14513
14514
14519
14520
14524
14525
14526
14527
14528
14530
14532
14533
14536
14539
14553
14560
14562
14564
14565
14570
14571
14572
14575
14577
14581
14583
14587
14588
14591
14592
14594
14595
14597
14600
14605
14606
14607
14611
14612
14613
14614
14617
14620
14622
14623
14626
14630
14633
14635
14636
14637
14642
14645
14652
14654
14657
14660
14662
14668
14669
14673
14676
14681
14682
14684
14686
14687
14689
14690
14691
14692
14694
14696
14697
14698
14704
14705
14711
14712
14715
14722
14723
14724
14728
14740
14746
14747
14749
14755
14756
14757
14769
14775
14776
14778
14782
14784
14789
14790
14791
14794
14795
14809
14810
14811
14813
14814
14816
14817
14818
14820
14821
14826
14827
14831
14832
14835
14841
14846
14851
14855
14856
14860
14861
14864
14866
14873
14874
14877
14878
14880
14893
14895
14901
14902
14907
14911
14918
14920
14921
14931
14935
14938
14939
14944
14945
14946
14951
14954
14971
14972
14974
14976
14981
14985
14987
15004
15005
15006
15007
15008
15011
15012
15015
15016
15017
15021
15025
15030
15037
15038
15041
15043
15049
15050
15052
15054
15056
15057
15058
15065
15074
15077
15078
15083
15087
15088
15090
15094
15095
15099
15105
15110
15114
15117
15118
15121
15124
15126
15136
15137
15140
15142
15145
15147
15151
15153
15155
15160
15162
15165
15171
15173
15175
15186
15192
15196
15201
15202
15206
15208
15211
15214
15216
15221
15223
15236
15238
15245
15247
15248
15250
15258
15264
15267
15269
15270
15273
15278
15282
15290
15291
15292
15295
15302
15303
15315
15320
15321
15328
15339
15342
15344
15345
15351
15352
15355
15358
15359
15360
15361
15366
15369
15371
15372
15373
15374
15377
15379
15380
15381
15386
15391
15404
15406
15409
15411
15412
15413
15416
15432
15433
15437
15440
15441
15445
15451
15453
15455
15461
15465
15474
15480
15481
15482
15483
15484
15487
15489
15504
15506
15510
15522
15524
15525
15528
15531
15534
15538
15540
15543
15545
15547
15548
15550
15553
15554
15556
15561
15562
15566
15575
15584
15587
15588
15590
15591
15592
15596
15606
15609
15610
15613
15615
15622
15624
15632
15635
15637
15638
15642
15643
15650
15651
15653
15655
15658
15660
15663
15665
15667
15671
15673
15674
15678
15679
15682
15684
15685
15693
15698
15699
15700
15702
15704
15706
15709
15714
15719
15723
15724
15732
15733
15735
15736
15737
15742
15743
15745
15747
15753
15758
15761
15765
15767
15769
15770
15772
15775
15776
15777
15778
15784
15785
15786
15789
15794
15796
15802
15803
15813
15815
15821
15823
15830
15842
15847
15850
15854
15868
15872
15875
15876
15883
15884
15885
15887
15891
15894
15895
15896
15897
15898
15900
15908
15909
15913
15914
15915
15919
15920
15921
15922
15923
15929
15930
15934
15935
15938
15939
15942
15943
15947
15948
15949
15955
15957
15959
15965
15967
15972
15978
15981
15984
15986
15987
15988
15991
15992
15994
15998
16002
16003
16004
16005
16009
16014
16021
16023
16024
16025
16026
16028
16029
16032
16033
16034
16036
16040
16041
16043
16054
16055
16057
16058
16059
16060
16062
16068
16070
16072
16073
16078
16079
16084
16086
16087
16091
16092
16097
16102
16104
16108
16109
16110
16112
16113
16129
16142
16144
16145
16146
16147
16149
16150
16155
16157
16166
16167
16169
16178
16181
16183
16186
16187
16188
16192
16193
16194
16198
16199
16203
16204
16208
16211
16213
16215
16217
16220
16221
16222
16223
16228
16232
16233
16237
16238
16240
16248
16250
16253
16254
16255
16257
16261
16269
16270
16283
16288
16293
16296
16298
16299
16305
16307
16308
16316
16318
16320
16321
16328
16329
16331
16333
16334
16338
16339
16341
16354
16355
16358
16360
16362
16363
16365
16371
16380
16385
16386
16387
16392
16393
16394
16395
16397
16398
16399
16407
16412
16415
16419
16421
16422
16425
16433
16434
16435
16437
16438
16439
16442
16443
16454
16459
16460
16466
16476
16479
16483
16484
16485
16492
16494
16498
16499
16505
16507
16515
16516
16519
16524
16528
16533
16534
16537
16540
16542
16545
16547
16550
16551
16556
16557
16558
16562
16563
16569
16574
16576
16577
16579
16584
16587
16588
16589
16590
16594
16597
16601
16612
16613
16614
16618
16623
16624
16625
16627
16629
16630
16637
16643
16648
16650
16651
16652
16655
16660
16663
16667
16670
16672
16673
16676
16677
16683
16685
16690
16691
16696
16701
16705
16710
16713
16716
16720
16721
16727
16737
16741
16742
16747
16752
16755
16759
16763
16764
16768
16777
16780
16784
16787
16788
16792
16801
16802
16803
16804
16805
16806
16809
16810
16815
16817
16821
16822
16836
16840
16841
16842
16844
16848
16849
16850
16856
16857
16862
16864
16865
16866
16869
16872
16878
16888
16892
16894
16896
16897
16902
16903
16911
16919
16921
16925
16927
16939
16942
16943
16945
16946
16947
16950
16953
16955
16960
16961
16967
16968
16975
16980
16988
16991
16993
16996
16997
16998
17003
17005
17006
17008
17014
17018
17022
17023
17024
17025
17027
17028
17029
17031
17033
17039
17045
17048
17056
17058
17059
17060
17061
17063
17082
17085
17097
17101
17104
17109
17110
17115
17117
17121
17123
17127
17128
17142
17145
17146
17147
17149
17150
17157
17161
17162
17166
17168
17169
17171
17174
17179
17181
17191
17194
17195
17197
17200
17201
17203
17205
17208
17209
17210
17212
17213
17215
17216
17219
17224
17243
17245
17249
17268
17273
17283
17290
17293
17299
17307
17311
17317
17327
17328
17338
17340
17344
17353
17354
17357
17358
17367
17372
17375
17376
17377
17378
17380
17396
17400
17411
17414
17422
17424
17429
17432
17433
17434
17435
17436
17438
17443
17454
17455
17458
17459
17461
17465
17468
17473
17474
17475
17478
17479
17486
17489
17490
17495
17498
17499
17507
17510
17511
17513
17516
17523
17524
17525
17526
17527
17528
17533
17534
17540
17541
17542
17543
17544
17545
17547
17550
17553
17555
17570
17571
17573
17574
17577
17579
17584
17589
17592
17593
17594
17595
17596
17597
17598
17605
17606
17612
17613
17621
17622
17623
17624
17627
17628
17629
17630
17635
17636
17641
17642
17645
17647
17654
17661
17666
17668
17671
17676
17677
17678
17680
17683
17685
17687
17688
17689
17691
17692
17694
17698
17699
17703
17706
17707
17708
17711
17713
17715
17717
17718
17720
17723
17727
17728
17729
17730
17731
17735
17737
17738
17740
17741
17746
17749
17750
17752
17753
17754
17755
17756
17761
17762
17764
17771
17773
17776
17777
17780
17783
17788
17792
17796
17797
17799
17800
17803
17806
17811
17812
17813
17815
17817
17820
17821
17822
17824
17827
17834
17835
17836
17841
17842
17845
17847
17850
17852
17853
17859
17863
17864
17865
17867
17871
17872
17882
17883
17887
17888
17891
17893
17895
17897
17901
17911
17912
17918
17919
17925
17927
17928
17929
17933
17935
17938
17941
17944
17946
17948
17956
17957
17962
17969
17970
17971
17974
17979
17981
17984
17985
17991
17992
17996
17997
18000
18001
18002
18004
18005
18007
18009
18022
18024
18026
18028
18031
18036
18040
18041
18042
18043
18044
18048
18050
18051
18055
18060
18063
18068
18069
18072
18073
18074
18075
18077
18079
18083
18084
18085
18086
18087
18095
18098
18105
18106
18109
18111
18120
18125
18127
18128
18129
18132
18133
18134
18135
18136
18138
18139
18148
18150
18151
18154
18161
18163
18168
18172
18174
18175
18177
18182
18183
18184
18187
18191
18195
18196
18199
18200
18201
18204
18210
18214
18226
18229
18230
18231
18232
18233
18237
18242
18244
18245
18253
18259
18262
18266
18267
18268
18274
18280
18284
18285
18300
18311
18312
18322
18326
18327
18331
18333
18335
18338
18342
18346
18351
18352
18356
18365
18367
18368
18369
18370
18374
18379
18382
18385
18391
18392
18394
18395
18399
18402
18404
18419
18420
18424
18427
18434
18436
18437
18446
18447
18449
18451
18456
18460
18472
18473
18474
18484
18491
18496
18498
18501
18505
18509
18510
18514
18515
18517
18518
18522
18527
18535
18540
18543
18544
18547
18551
18562
18563
18565
18567
18571
18572
18578
18579
18585
18589
18590
18594
18597
18601
18605
18609
18610
18612
18622
18623
18624
18629
18630
18631
18634
18639
18640
18641
18643
18649
18650
18651
18652
18654
18656
18658
18661
18664
18666
18667
18672
18673
18682
18684
18699
18701
18720
18731
18733
18738
18743
18751
18753
18761
18773
18774
18779
18784
18787
18802
18803
18813
18815
18819
18821
18822
18825
18826
18830
18833
18839
18846
18847
18848
18853
18855
18857
18858
18860
18861
18868
18872
18874
18882
18888
18894
18896
18897
18900
18904
18906
18910
18921
18922
18923
18925
18926
18936
18941
18942
18946
18951
18953
18958
18961
18964
18965
18968
18970
18971
18972
18977
18978
18981
18982
18990
18991
18992
18998
18999
19003
19006
19008
19009
19011
19016
19020
19025
19027
19032
19034
19036
19038
19042
19048
19052
19058
19059
19063
19064
19070
19077
19080
19087
19088
19089
19090
19095
19101
19107
19119
19120
19130
19132
19133
19136
19137
19139
19151
19154
19165
19166
19168
19169
19172
19174
19180
19183
19184
19185
19186
19189
19195
19196
19197
19205
19206
19208
19212
19217
19222
19223
19224
19225
19227
19229
19230
19235
19236
19238
19239
19242
19244
19249
19252
19253
19254
19255
19261
19265
19271
19277
19278
19280
19286
19287
19291
19293
19295
19296
19297
19302
19304
19306
19308
19310
19312
19313
19320
19324
19335
19339
19344
19346
19350
19357
19361
19365
19367
19386
19387
19397
19410
19417
19419
19422
19424
19432
19433
19442
19458
19461
19466
19468
19469
19470
19472
19473
19475
19478
19485
19486
19487
19495
19497
19499
19503
19505
19508
19512
19514
19521
19522
19525
19527
19532
19542
19543
19546
19552
19553
19554
19558
19568
19576
19580
19585
19586
19587
19595
19601
19605
19618
19624
19625
19627
19634
19649
19655
19658
19670
19672
19675
19684
19685
19687
19692
19693
19696
19697
19699
19703
19705
19708
19718
19720
19723
19724
19725
19729
19732
19733
19738
19746
19747
19749
19753
19764
19765
19766
19782
19788
19792
19795
19798
19804
19805
19806
19808
19809
19812
19813
19819
19820
19826
19830
19835
19840
19843
19844
19846
19850
19853
19854
19855
19856
19857
19860
19866
19867
19868
19889
19890
19892
19893
19895
19901
19903
19905
19908
19910
19916
19919
19922
19924
19929
19930
19933
19942
19944
19945
19946
19947
19948
19950
19954
19955
19959
19960
19963
19964
19971
19980
19981
19982
19984
19985
19986
19994
19996
19997
19998
20009
20011
20014
20016
20017
20018
20023
20025
20026
20027
20029
20032
20033
20034
20037
20044
20047
20053
20054
20060
20066
20070
20071
20074
20082
20089
20091
20101
20104
20110
20111
20112
20114
20115
20116
20117
20122
20126
20129
20131
20133
20135
20138
20143
20149
20150
20151
20156
20160
20162
20164
20168
20171
20172
20178
20179
20180
20182
20190
20194
20198
20199
20207
20213
20220
20223
20241
20244
20246
20249
20250
20253
20255
20257
20258
20259
20260
20261
20262
20263
20264
20265
20266
20267
20268
20269
20275
20278
20280
20281
20291
20293
20297
20298
20302
20314
20326
20331
20332
20335
20344
20346
20351
20355
20356
20359
20366
20374
20383
20397
20401
20402
20405
20428
20434
20435
20437
20442
20449
20453
20454
20458
20459
20460
20463
20465
20466
20477
20478
20481
20482
20483
20487
20495
20504
20509
20516
20523
20527
20535
20537
20538
20546
20548
20554
20565
20568
20574
20576
20578
20591
20599
20601
20603
20614
20621
20623
20624
20627
20628
20630
20635
20647
20649
20651
20659
20663
20671
20672
20676
20679
20684
20690
20692
20696
20702
20703
20704
20705
20707
20714
20720
20730
20736
20742
20746
20747
20748
20762
20766
20767
20771
20774
20783
20795
20796
20799
20810
20811
20814
20818
20831
20834
20836
20842
20846
20852
20854
20856
20860
20861
20863
20869
20875
20876
20879
20881
20887
20888
20892
20896
20900
20905
20906
20907
20912
20913
20914
20925
20929
20933
20934
20937
20943
20944
20964
20968
20978
20979
20981
20991
20993
20994
20995
20999
21007
21014
21015
21026
21027
21029
21030
21031
21036
21039
21054
21061
21069
21080
21081
21083
21094
21098
21101
21102
21106
21122
21125
21133
21144
21149
21164
21167
21174
21177
21180
21185
21187
21188
21195
21198
21199
21204
21219
21221
21230
21231
21241
21245
21249
21250
21252
21253
21257
21258
21259
21261
21264
21267
21269
21270
21276
21282
21284
21286
21287
21297
21298
21302
21308
21315
21322
21344
21345
21354
21355
21356
21376
21379
21385
21386
21391
21394
21400
21407
21413
21415
21418
21425
21429
21432
21433
21434
21440
21441
21443
21444
21448
21449
21453
21462
21466
21468
21469
21470
21473
21477
21479
21488
21492
21502
21506
21507
21508
21513
21514
21526
21536
21539
21542
21544
21547
21548
21549
21550
21551
21558
21559
21560
21570
21571
21576
21580
21581
21583
21586
21589
21593
21607
21617
21620
21625
21640
21641
21644
21646
21649
21661
21663
21666
21667
21683
21684
21688
21696
21704
21705
21706
21717
21719
21724
21726
21727
21728
21729
21732
21744
21746
21747
21749
21751
21755
21756
21758
21760
21773
21777
21782
21783
21789
21790
21791
21795
21800
21802
21807
21808
21809
21810
21813
21814
21818
21822
21825
21831
21834
21836
21837

===== LBBB =====
180
256
279
286
287
338
346
489
517
545
598
618
635
711
712
730
796
798
822
833
946
1056
1072
1156
1367
1500
1564
1667
1694
1710
1797
1800
1986
1990
2066
2135
2136
2225
2245
2365
2402
2567
2581
2615
2672
2741
2818
2940
2988
3037
3074
3096
3145
3294
3304
3479
3484
3828
3835
3932
4016
4148
4320
4331
4358
4366
4415
4432
4442
4467
4495
4502
4534
4538
4560
4563
4575
4580
4788
4800
4893
4919
4934
4985
5042
5059
5084
5089
5168
5191
5241
5249
5320
5353
5354
5367
5394
5398
5432
5439
5504
5510
5517
5574
5606
5715
5840
5858
5865
5871
5872
5913
5920
5925
6014
6153
6154
6174
6315
6332
6334
6382
6395
6396
6405
6412
6444
6447
6484
6517
6560
6572
6589
6652
6661
6678
6738
6750
6842
6876
6895
6908
6955
7035
7036
7043
7090
7105
7143
7227
7234
7271
7295
7296
7304
7393
7440
7456
7485
7495
7511
7539
7565
7592
7613
7678
7686
7713
7731
7919
7960
7962
7967
8018
8082
8092
8312
8316
8332
8374
8411
8432
8436
8581
8610
8620
8681
8695
8868
8957
9070
9081
9110
9122
9163
9194
9284
9326
9347
9364
9387
9400
9424
9485
9562
9628
9662
9663
9717
9787
9813
10092
10130
10133
10190
10283
10296
10381
10395
10456
10709
10727
10751
10754
10802
10861
10862
10875
10877
10897
10967
10999
11091
11093
11095
11135
11174
11193
11203
11208
11218
11269
11284
11288
11334
11387
11418
11441
11474
11495
11618
11621
11642
11665
11804
11828
11830
11870
11919
12178
12247
12375
12538
12571
12703
12718
12762
12780
12826
12889
12921
12942
12950
13046
13061
13182
13223
13261
13264
13277
13281
13444
13457
13614
13618
13620
13665
13732
13820
13984
14047
14181
14219
14369
14430
14434
14467
14493
14511
14593
14707
14721
14726
14744
14815
14819
14887
14888
14917
14926
14959
14983
14992
15031
15063
15101
15128
15129
15135
15157
15219
15244
15265
15311
15337
15357
15364
15367
15434
15438
15447
15467
15492
15576
15577
15628
15681
15688
15701
15703
15798
15812
15822
15853
15906
15958
16046
16096
16100
16151
16171
16189
16234
16243
16430
16496
16501
16530
16593
16639
16640
16657
16682
16698
16762
16883
16906
16907
16920
16928
16949
16985
16990
17017
17041
17094
17095
17136
17164
17177
17270
17274
17287
17308
17310
17332
17364
17365
17382
17390
17410
17426
17427
17467
17500
17546
17588
17604
17640
17682
17690
17719
17724
17757
17833
17837
17906
17965
17973
17988
17989
18037
18108
18220
18258
18278
18293
18376
18396
18414
18499
18548
18659
18690
18700
18707
18722
18729
18730
18759
18777
18862
18916
18943
19068
19094
19131
19138
19155
19161
19190
19202
19216
19281
19345
19403
19443
19452
19453
19506
19519
19528
19535
19539
19550
19555
19563
19604
19761
19772
19816
19818
19821
19847
19858
19967
19974
19995
20019
20021
20040
20059
20100
20120
20189
20224
20245
20319
20352
20364
20370
20378
20399
20404
20443
20494
20506
20545
20634
20641
20656
20675
20761
20790
20802
20806
20823
20832
20847
20849
20874
20877
20893
20942
20945
20950
20966
20983
21008
21072
21074
21085
21093
21141
21148
21152
21163
21181
21291
21331
21375
21405
21450
21454
21463
21482
21484
21533
21592
21643
21660
21676
21690
21761

===== RBBB =====
172
195
269
310
424
428
455
477
512
547
621
680
788
826
871
903
957
1024
1049
1066
1093
1123
1157
1232
1237
1240
1328
1424
1437
1452
1478
1492
1558
1570
1575
1625
1635
1688
1722
1733
1907
2017
2034
2042
2124
2227
2243
2262
2311
2433
2493
2535
2599
2614
2623
2655
2671
2684
2716
2742
2889
2894
3001
3041
3058
3129
3155
3244
3339
3407
3431
3455
3461
3463
3503
3504
3506
3532
3534
3578
3582
3597
3777
3784
3802
3890
3947
3953
4028
4051
4068
4121
4214
4251
4339
4377
4425
4470
4523
4554
4571
4586
4735
4757
4758
4832
4868
4872
4903
4929
4942
4948
5003
5076
5167
5169
5189
5212
5219
5224
5240
5286
5339
5451
5494
5495
5650
5713
5752
5764
5804
5880
5951
6056
6195
6269
6282
6300
6343
6512
6530
6543
6800
6840
6873
6976
7041
7073
7098
7118
7210
7228
7232
7241
7250
7255
7400
7428
7482
7501
7516
7579
7603
7682
7720
7742
7769
7811
7882
7897
8020
8030
8041
8130
8278
8292
8348
8449
8499
8504
8513
8599
8666
8672
8680
8684
8712
8732
8742
8758
8863
8890
8994
9033
9061
9064
9124
9216
9275
9324
9335
9545
9620
9639
9690
9703
9895
9906
9926
9929
9991
10003
10051
10052
10075
10131
10136
10274
10336
10339
10359
10360
10370
10406
10488
10558
10752
10792
10819
10832
10848
10872
10938
10982
11005
11007
11033
11045
11047
11053
11103
11107
11109
11170
11215
11227
11260
11327
11339
11370
11401
11409
11430
11442
11444
11475
11485
11500
11521
11529
11583
11614
11629
11652
11699
11746
11756
11854
11917
11923
11963
11970
11978
11981
12023
12098
12130
12162
12204
12208
12236
12239
12297
12309
12331
12360
12394
12417
12450
12481
12552
12584
12627
12669
12755
12769
12792
12825
12843
12858
12893
12902
12914
12936
12971
13015
13031
13060
13069
13100
13112
13115
13130
13189
13228
13376
13441
13464
13624
13657
13695
13698
13813
13831
13849
13851
13853
13855
13953
13962
13979
14010
14087
14116
14192
14196
14316
14323
14341
14360
14371
14431
14451
14468
14475
14517
14534
14569
14576
14599
14641
14666
14702
14767
14853
14868
14872
14932
14941
15010
15108
15203
15436
15502
15518
15526
15532
15539
15573
15607
15669
15718
15720
15886
15911
15973
16012
16126
16128
16206
16227
16259
16313
16330
16344
16345
16389
16396
16409
16450
16455
16520
16671
16700
16714
16748
16791
16808
16859
16875
16890
16948
16959
16962
16966
17099
17156
17165
17228
17269
17282
17285
17329
17342
17345
17361
17362
17379
17611
17619
17651
17660
17670
17679
17743
17782
17793
17873
17920
17939
17998
18035
18101
18131
18146
18189
18409
18455
18457
18481
18536
18539
18552
18566
18569
18596
18611
18665
18668
18671
18677
18685
18717
18724
18799
18834
18841
18863
18864
18912
18915
18956
18963
18976
18984
18987
19007
19039
19108
19117
19134
19301
19338
19444
19479
19494
19711
19777
19786
19787
19823
19906
19917
19976
19999
20057
20158
20159
20185
20208
20243
20248
20252
20282
20301
20306
20324
20358
20365
20367
20400
20529
20569
20612
20674
20738
20902
20923
20932
20947
20957
20989
21038
21063
21075
21111
21113
21197
21207
21212
21266
21275
21324
21328
21336
21368
21460
21464
21474
21605
21619
21648
21741
21754
21803
21804
21812

===== 1dAVB =====
102
141
182
191
209
218
234
347
413
522
524
535
551
555
556
563
667
685
688
728
800
864
883
998
1014
1033
1128
1135
1183
1187
1189
1202
1239
1371
1392
1463
1469
1482
1484
1525
1549
1680
1684
1696
1713
1719
1721
1756
1805
1868
1927
1939
2082
2113
2146
2165
2176
2206
2253
2333
2340
2359
2411
2412
2428
2509
2520
2576
2585
2588
2606
2648
2667
2681
2709
2735
2879
2887
2918
2924
2925
3000
3070
3084
3101
3113
3133
3196
3209
3238
3242
3276
3337
3353
3486
3496
3499
3509
3551
3636
3653
3658
3685
3701
3731
3755
3821
3855
3948
3980
4002
4010
4081
4349
4359
4384
4387
4440
4494
4608
4665
4673
4707
4780
4794
4815
4850
4878
4908
4927
4974
4983
4995
5034
5052
5062
5070
5094
5114
5124
5129
5158
5173
5196
5279
5297
5314
5334
5343
5450
5458
5472
5473
5476
5520
5521
5546
5637
5709
5717
5729
5740
5807
5847
5857
5923
6088
6197
6203
6212
6228
6303
6313
6420
6445
6450
6471
6525
6592
6595
6609
6727
6812
6849
6866
6910
6958
7003
7049
7055
7079
7189
7226
7230
7246
7265
7321
7349
7408
7411
7465
7500
7514
7518
7598
7619
7658
7727
7802
7958
7991
8066
8073
8161
8163
8220
8231
8232
8237
8251
8279
8300
8304
8334
8355
8375
8584
8669
8686
8698
8744
8749
8792
8799
8877
8889
8904
8930
8983
8996
9003
9030
9082
9108
9144
9154
9200
9233
9252
9265
9270
9305
9306
9312
9349
9372
9383
9391
9401
9402
9404
9416
9460
9494
9507
9543
9619
9629
9657
9679
9713
9742
9769
9822
9832
9869
9931
9967
10012
10084
10173
10218
10286
10343
10566
10587
10646
10695
10707
10772
10779
10807
10878
10888
10961
11048
11071
11094
11097
11110
11187
11205
11346
11360
11376
11395
11397
11400
11408
11491
11496
11508
11522
11527
11542
11566
11586
11608
11612
11646
11648
11655
11662
11668
11733
11748
11827
11877
11882
11903
11935
12005
12221
12223
12227
12260
12422
12424
12454
12463
12555
12567
12572
12770
12801
12856
12868
13050
13082
13097
13127
13188
13192
13214
13217
13222
13246
13251
13266
13278
13369
13416
13433
13439
13499
13515
13617
13796
13856
13906
13913
13927
13974
14127
14147
14166
14194
14211
14216
14332
14400
14417
14427
14490
14496
14582
14598
14646
14650
14701
14729
14781
14829
14847
14904
14942
14960
14968
15032
15044
15059
15064
15115
15167
15194
15228
15249
15256
15274
15354
15362
15378
15494
15495
15501
15519
15520
15593
15618
15623
15657
15676
15749
15763
15790
15804
15805
15862
15882
15892
15990
16007
16077
16158
16163
16173
16175
16209
16319
16408
16427
16436
16631
16703
16723
16729
16730
16745
16757
16794
16858
16885
16898
16970
16982
17016
17100
17122
17133
17225
17227
17314
17339
17346
17351
17368
17401
17431
17503
17586
17615
17786
17798
17802
17855
17879
17899
17937
17940
17961
17995
18078
18094
18164
18350
18381
18398
18421
18458
18468
18483
18489
18500
18525
18632
18638
18711
18745
18750
18763
18845
18893
18899
18919
18924
18930
18948
18950
19010
19085
19092
19114
19116
19125
19146
19211
19276
19340
19341
19356
19362
19379
19384
19429
19477
19520
19536
19573
19577
19613
19647
19648
19654
19664
19668
19695
19803
19824
19827
19837
19848
19859
19900
19931
19953
20046
20081
20108
20137
20147
20157
20170
20177
20274
20295
20299
20304
20327
20350
20391
20415
20426
20433
20515
20534
20536
20558
20564
20592
20594
20723
20734
20805
20816
20825
20826
20830
20862
20889
20960
21000
21012
21040
21070
21108
21140
21151
21182
21208
21225
21281
21312
21313
21332
21357
21372
21390
21402
21505
21524
21525
21540
21557
21561
21630
21633
21674
21699
21711
21722
21745
21784
21815
